x1v,mass,momx,energy,rho,vx,press
0.00390625,1.0,0.0,2.5000000000000004,1.0,0.0,1.0
0.01171875,1.0,0.0,2.5000000000000004,1.0,0.0,1.0
0.01953125,1.0,0.0,2.5000000000000004,1.0,0.0,1.0
0.02734375,1.0,0.0,2.5000000000000004,1.0,0.0,1.0
0.03515625,1.0,0.0,2.5000000000000004,1.0,0.0,1.0
0.04296875,1.0,0.0,2.5000000000000004,1.0,0.0,1.0
0.05078125,1.0,0.0,2.5000000000000004,1.0,0.0,1.0
0.05859375,1.0,0.0,2.5000000000000004,1.0,0.0,1.0
0.06640625,1.0,0.0,2.5000000000000004,1.0,0.0,1.0
0.07421875,0.9999999999999983,1.9741979074204816e-15,2.4999999999999947,0.9999999999999983,1.9741979074204848e-15,0.9999999999999977
0.08203125,0.9999999999999264,8.701653025470565e-14,2.499999999999743,0.9999999999999264,8.701653025471205e-14,0.999999999999897
0.08984375,0.9999999999983701,1.9286883110198493e-12,2.4999999999942957,0.9999999999983701,1.928688311022993e-12,0.999999999997718
0.09765625,0.9999999999763781,2.7949843068241542e-11,2.499999999917324,0.9999999999763781,2.794984306890177e-11,0.9999999999669293
0.10546875,0.9999999997481207,2.9802734444711e-10,2.4999999991184234,0.9999999997481207,2.980273445221769e-10,0.9999999996473692
0.11328125,0.9999999978928513,2.4932119346765306e-09,2.4999999926249803,0.9999999978928513,2.493211939930099e-09,0.9999999970499919
0.12109375,0.9999999855989679,1.7039530741256242e-08,2.4999999495963885,0.9999999855989679,1.7039530986643076e-08,0.9999999798385552
0.12890625,0.9999999173279094,9.78189262799297e-08,2.4999997106477077,0.9999999173279094,9.781893436682551e-08,0.9999998842590809
0.13671875,0.9999995932033509,4.813280489409809e-07,2.4999985762122683,0.9999995932033509,4.81328244743698e-07,0.9999994304848607
0.14453125,0.9999982577324992,2.0614746813267536e-06,2.499993902072751,0.9999982577324992,2.0614782729733523e-06,0.9999975608282502
0.15234375,0.9999934266154257,7.777680173329697e-06,2.4999769932715914,0.9999934266154257,7.777731299348643e-06,0.9999907972965377
0.16015625,0.9999779409201125,2.6100092476868188e-05,2.4999227944450855,0.9999779409201125,2.610066823359387e-05,0.999969117641788
0.16796875,0.9999336339963988,7.852051313412803e-05,2.4997677293100544,0.9999336339963988,7.852572457264781e-05,0.9999070904908455
0.17578125,0.9998198017644316,0.00021317988727830473,2.499369377498331,0.9998198017644316,0.0002132183088413488,0.9997477419085612
0.18359375,0.9995558756558134,0.0005253009796744511,2.4984459732798157,0.9995558756558134,0.0005255343822873319,0.9993783340991809
0.19140625,0.9990012014244442,0.0011808552570193298,2.496506164164044,0.9990012014244442,0.0011820358727653037,0.9986021865029624
0.19921875,0.9979400476274951,0.0024335268443962557,2.4927981144573432,0.9979400476274951,0.0024385501415458053,0.997118058927491
0.20703125,0.9960836008228856,0.004620527137255081,2.4863201541173194,0.9960836008228856,0.004638694115070227,0.9945237750045196
0.21484375,0.9930978659147158,0.008126243423835586,2.4759250471049494,0.9930978659147158,0.008182721665956579,0.9903567198843541
0.22265625,0.9886552947546382,0.013316557592708361,2.4605096202164556,0.9886552947546382,0.013469363552048976,0.9841679749754865
0.23046875,0.9824942887050084,0.020464086464135174,2.4392311697917792,0.9824942887050084,0.02082870780969951,0.9756072198212008
0.23828125,0.9744647499198219,0.029692415930966335,2.4116697703721774,0.9744647499198219,0.03047048744801636,0.9644869596714857
0.24609375,0.96454477147769,0.04095851897419846,2.3778813836785098,0.96454477147769,0.04246409309901674,0.95080470019882
0.25390625,0.9528278555746975,0.05407375778260103,2.3383405592288105,0.9528278555746975,0.05675081544502756,0.934722477721856
0.26171875,0.939491408398622,0.06874879137703822,2.293814510080629,0.939491408398622,0.07317660466339083,0.9165196434067148
0.26953125,0.9247601675638836,0.08464392151751861,2.245221065426987,0.9247601675638836,0.0915306740995322,0.8965389231318094
0.27734375,0.9088744903308629,0.10141161597543893,2.1935082003411486,0.9088744903308629,0.11157934022168614,0.8751401918961884
0.28515625,0.8920678083298105,0.11872571548107656,2.1395708433689196,0.8920678083298105,0.13309046058209728,0.8526680853163044
0.29296875,0.8745533098714482,0.13629764385507165,2.0842042179086184,0.8745533098714482,0.15584829685809118,0.8294333360313304
0.30078125,0.8565178601812573,0.1538826749574187,2.028085225837508,0.8565178601812573,0.17966078947245054,0.8057047537612065
0.30859375,0.8381207439621599,0.17127978046930753,1.9717720167496184,0.8381207439621599,0.2043617005105897,0.7817082012598895
0.31640625,0.8194951896399864,0.18832796023954618,1.9157136034789768,0.8194951896399864,0.2298097202038255,0.7576295222217491
0.32421875,0.8007512331924094,0.20490105673225265,1.8602638932101705,0.8007512331924094,0.25588603331319226,0.7336192935582886
0.33203125,0.781979021387035,0.22090226507990657,1.8056967120182021,0.781979021387035,0.282491293293369,0.7097980914965092
0.33984375,0.7632520527709715,0.23625898269339016,1.7522199914741055,0.7632520527709715,0.30954254474083176,0.6862615552454836
0.34765625,0.7446301141806946,0.2509182821538359,1.6999882990482231,0.7446301141806946,0.33697036605874786,0.6630849145416471
0.35546875,0.7261618246183088,0.2648430842289885,1.6491134789329087,0.7261618246183088,0.3647163417991541,0.640326871407003
0.36328125,0.7078867821867985,0.27800900105119275,1.5996734747932366,0.7078867821867985,0.3927308830267595,0.61803284582285
0.37109375,0.6898373507046769,0.2904017724793169,1.5517195432654243,0.6898373507046769,0.42097136692101134,0.596237651082789
0.37890625,0.6720401392378564,0.3020152046782174,1.505282111748967,0.6720401392378564,0.4494005447661581,0.5749676851975759
0.38671875,0.654517231829446,0.3128495226297937,1.460375532344026,0.654517231829446,0.47798515824456705,0.5542427272214224
0.39453125,0.6372872232434702,0.32291005828487024,1.417001962515273,0.6372872232434702,0.5066946998269023,0.5340774219953611
0.40234375,0.6203661137784721,0.33220620836781667,1.3751545772531921,0.6203661137784721,0.535500248948873,0.5144825294446114
0.41015625,0.6037681148415911,0.3407506079967753,1.3348202956292157,0.6037681148415911,0.5643733076003477,0.49546600871129226
0.41796875,0.5875064191631287,0.3485584772483063,1.2959821921874362,0.5875064191631287,0.5932845427370974,0.4770340055166943
0.42578125,0.5715939977811284,0.35564710731194715,1.2586217657371457,0.5715939977811284,0.6222023126424249,0.4591918157640418
0.43359375,0.5560445041352575,0.36203546109548645,1.2227212622049535,0.5560445041352575,0.6510908001123261,0.44194491327524227
0.44140625,0.5408734007585028,0.367743870452025,1.1882663074732518,0.5408734007585028,0.6799074791555904,0.4253001614025094
0.44921875,0.5260994893870513,0.372793819225125,1.1552492259161322,0.5260994893870513,0.7085994697684656,0.4092673898392758
0.45703125,0.5117471468214911,0.3772078090011896,1.1236736508339928,0.5117471468214911,0.7370980206613016,0.3938616344550444
0.46484375,0.49784979900100973,0.3810093143981375,1.0935614759129881,0.49784979900100973,0.765309768453607,0.37910656032905393
0.47265625,0.48445561238580254,0.3842228497074701,1.0649640621127374,0.48445561238580254,0.7931022778646009,0.36504002138297037
0.48046875,0.47163726728188965,0.3868741937656976,1.0379813356932803,0.47163726728188965,0.8202791013426626,0.35172357107835334
0.48828125,0.45950943794702337,0.38899086314577763,1.012795842501917,0.45950943794702337,0.8465350894286184,0.33925945397676144
0.49609375,0.4482609036394199,0.3906029922910136,0.9897352686164607,0.4482609036394199,0.8713742133648439,0.327821832417477
0.50390625,0.4382127339226018,0.3917448499553348,0.9693858153632171,0.4382127339226018,0.8939604434784083,0.31771344618599606
0.51171875,0.4299087851826514,0.39245716248836954,0.9527688270448523,0.4299087851826514,0.9128847234922866,0.30945390116578836
0.51953125,0.4241590370315872,0.3927904508806053,0.9414254014703166,0.4241590370315872,0.9260452249927051,0.3038218162959833
0.52734375,0.4215860388644659,0.39281540285949335,0.936524166014908,0.4215860388644659,0.931756193629026,0.3014080294925203
0.53515625,0.42126733537672395,0.39265480894559135,0.9361816156826386,0.42126733537672395,0.9320798836550063,0.30127551654533824
0.54296875,0.4214564348515509,0.39243169901015756,0.9369014956601305,0.4214564348515509,0.931132298759143,0.3016794322629953
0.55078125,0.4216347485609019,0.3921746662769545,0.9376554223013557,0.4216347485609019,0.9301289033114593,0.30210757047039793
0.55859375,0.4216978024282318,0.39188225907672125,0.9382478078579694,0.4216978024282318,0.929296422272476,0.30246416688077715
0.56640625,0.4216071299190861,0.3915449436158435,0.9386209710061195,0.4216071299190861,0.9286962098838033,0.30272312737540746
0.57421875,0.4213440303574068,0.3911456922454751,0.9387664209293064,0.4213440303574068,0.928328548795824,0.3028842258017265
0.58203125,0.4209009461957562,0.39065632630849023,0.9387143109876065,0.4209009461957562,0.9281431411342099,0.3029687264342599
0.58984375,0.4202629786126678,0.3900319815455808,0.938507238573116,0.4202629786126678,0.9280664759792007,0.303007774102808
0.59765625,0.4193815848461734,0.38920270535305773,0.9381637079204208,0.4193815848461734,0.9280395692524623,0.3030263809626193
0.60546875,0.4181583080984813,0.38806095121633016,0.9376670488751755,0.4181583080984813,0.9280240131566084,0.3030408432906402
0.61328125,0.4164332250938364,0.38644786734802916,0.936965211336668,0.4164332250938364,0.9279947997928106,0.30306176227666853
0.62109375,0.41397318703919017,0.38414504632288593,0.9359614760562366,0.41397318703919017,0.9279466843501619,0.3030913660135223
0.62890625,0.4104777006699488,0.3808802666394357,0.93451636063199,0.4104777006699488,0.9278951475751142,0.30312315400842627
0.63671875,0.40561822738971814,0.3763560740678176,0.932476842946248,0.40561822738971814,0.9278578935907004,0.30314974635357295
0.64453125,0.399105027652597,0.3703051657600343,0.9297157133298415,0.399105027652597,0.9278388897730658,0.30316957855673227
0.65234375,0.3907642543306167,0.3625639896559439,0.9261616073360838,0.3907642543306167,0.9278330493074907,0.30318487251612064
0.66015625,0.3806072757845189,0.35314150992847543,0.9218217023343698,0.3806072757845189,0.9278369920821133,0.30319712966347334
0.66796875,0.3688698705208578,0.3422552684120638,0.916799126894981,0.3688698705208578,0.9278482623934201,0.3032074595397669
0.67578125,0.35599907860055335,0.3303178233910385,0.9112898507889245,0.35599907860055335,0.9278614559608724,0.3032181050072827
0.68359375,0.34258636858616764,0.31787671122856503,0.9055506610790481,0.34258636858616764,0.9278732033046796,0.3032304079708981
0.69140625,0.3292724835546524,0.305527690521883,0.8998551037807861,0.3292724835546524,0.9278871019635984,0.3032430008467182
0.69921875,0.31665534591220157,0.29382698810616953,0.8944577310924884,0.31665534591220157,0.9279078717579534,0.30325421739726627
0.70703125,0.3052197924580281,0.28322373435369297,0.8895686873624042,0.3052197924580281,0.9279337099105068,0.3032649048342556
0.71484375,0.29529583700597334,0.2740226841352007,0.8853333609191849,0.29529583700597334,0.9279598619253738,0.3032769339407697
0.72265625,0.28704666490648456,0.2663757253935076,0.8818216866001714,0.28704666490648456,0.9279875294154307,0.3032900043792356
0.73046875,0.2804827485995104,0.2602943594386302,0.8790350657308531,0.2804827485995104,0.9280227063458141,0.30330221111378364
0.73828125,0.2754927504223283,0.25567539151690916,0.8769260037896284,0.2754927504223283,0.9280657698794641,0.30331368570237655
0.74609375,0.27188017489183935,0.2523344512532414,0.8754152096573758,0.27188017489183935,0.9281090515467936,0.30332730621790494
0.75390625,0.2693993031546781,0.250042597030487,0.8743999146791684,0.2693993031546781,0.9281486407072208,0.3033446265611173
0.76171875,0.26778959405864927,0.24856039059045554,0.8737636752808203,0.26778959405864927,0.9281928652388849,0.3033630738869178
0.76953125,0.26680755171036064,0.24766450060866718,0.873396561555366,0.26680755171036064,0.9282514644770076,0.30337963754435393
0.77734375,0.26624999812507666,0.24716501652650433,0.8732147614224359,0.26624999812507666,0.9283193174348615,0.30339629268184215
0.78515625,0.26596208845496616,0.24691438328799872,0.8731606838983473,0.26596208845496616,0.9283818784939618,0.3034181057625208
0.79296875,0.26583211953149805,0.24680882640102578,0.8731866501496716,0.26583211953149805,0.9284386959559331,0.30344528707303203
0.80078125,0.2657837245189346,0.2467824088474688,0.8732484314516875,0.2657837245189346,0.9285083550324311,0.3034714668826941
0.80859375,0.2657719045145704,0.2467959332063192,0.8733198438580367,0.2657719045145704,0.928600536829088,0.3034929703306899
0.81640625,0.2657775924589364,0.24682625611528364,0.8734025983389165,0.2657775924589364,0.9286947550080589,0.30351578944505864
0.82421875,0.26579370785260625,0.24685965357902243,0.873502021759401,0.26579370785260625,0.9287640989451731,0.3035459319593126
0.83203125,0.2657369804723038,0.24671893329811884,0.873163264948522,0.2657369804723038,0.9284328167634647,0.3034529151412388
0.83984375,0.2632533303154559,0.24132601102838652,0.8593897600927554,0.2632533303154559,0.9167063935685299,0.2995108845882798
0.84765625,0.2425396605333947,0.19720648893072823,0.7472856785771179,0.2425396605333947,0.8130896550981828,0.2668449602172852
0.85546875,0.1796252091029686,0.07939728469378231,0.4510458345646474,0.1796252091029686,0.4420163800520254,0.1733993537525978
0.86328125,0.13077795884881577,0.006625064399678431,0.2672989878143806,0.13077795884881577,0.050658875991001315,0.10685247146258108
0.87109375,0.12521029018169955,0.00022377474814535376,0.2505916730599868,0.12521029018169955,0.0017871913548049598,0.10023658923833564
0.87890625,0.12500660215222242,6.988803052787355e-06,0.2500184902552983,0.12500660215222242,5.590747154519874e-05,0.10000739602397404
0.88671875,0.12500020473076437,2.1666881717548854e-07,0.2500005732514416,0.12500020473076437,1.7333476984471146e-06,0.1000002293005015
0.89453125,0.12500000622788532,6.590976711843466e-09,0.250000017438085,0.12500000622788532,5.2727811067685645e-08,0.1000000069752339
0.90234375,0.12500000017885568,1.89283054876425e-10,0.25000000050079596,0.12500000017885568,1.5142644368447217e-09,0.10000000020031836
0.91015625,0.12500000000453915,4.8037971650435034e-12,0.25000000001270967,0.12500000000453915,3.8430377318952496e-11,0.10000000000508384
0.91796875,0.12500000000008887,9.405278720959996e-14,0.2500000000002489,0.12500000000008887,7.524222976762647e-13,0.10000000000009954
0.92578125,0.12500000000000108,1.138960331204124e-15,0.2500000000000031,0.12500000000000108,9.111682649632913e-15,0.10000000000000123
0.93359375,0.125,0.0,0.25000000000000006,0.125,0.0,0.1
0.94140625,0.125,0.0,0.25000000000000006,0.125,0.0,0.1
0.94921875,0.125,0.0,0.25000000000000006,0.125,0.0,0.1
0.95703125,0.125,0.0,0.25000000000000006,0.125,0.0,0.1
0.96484375,0.125,0.0,0.25000000000000006,0.125,0.0,0.1
0.97265625,0.125,0.0,0.25000000000000006,0.125,0.0,0.1
0.98046875,0.125,0.0,0.25000000000000006,0.125,0.0,0.1
0.98828125,0.125,0.0,0.25000000000000006,0.125,0.0,0.1
0.99609375,0.125,0.0,0.25000000000000006,0.125,0.0,0.1
